Angle,intensity
27.983286793319603,3.0150375939849625
28.015339968333233,3.0162907268170427
28.047395187653787,3.025062656641604
28.079452468771336,3.017543859649123
28.11151182917592,3.012531328320802
28.14357328635762,3.0100250626566414
28.175636857806474,3.020050125313283
28.207702561012557,3.0100250626566414
28.239770413465912,3.017543859649123
28.271840432656614,3.0150375939849625
28.303912636074703,3.0225563909774436
28.335987041210252,3.020050125313283
28.36806366555331,3.0213032581453634
28.400142526593946,3.0150375939849625
28.432223641822205,3.0162907268170427
28.46430702872816,3.0162907268170427
28.496392704801853,3.017543859649123
28.52848068753336,3.018796992481203
28.56057099441272,3.017543859649123
28.59266364293001,3.0238095238095237
28.624758650575274,3.0213032581453634
28.656856034838583,3.0238095238095237
28.68895581320998,3.020050125313283
28.72105800317954,3.0162907268170427
28.753162622237305,3.017543859649123
28.78526968787335,3.020050125313283
28.81737921757772,3.0137844611528823
28.84949122884048,3.0225563909774436
28.881605739151684,3.018796992481203
28.91372277,3.0162907268170427
28.94584232687967,3.017543859649123
28.977964439276573,3.0150375939849625
29.010089120682146,3.017543859649123
29.042216388586464,3.017543859649123
29.074346260479572,3.0162907268170427
29.106478753851544,3.0275689223057642
29.138613886192424,3.0100250626566414
29.17075166978456,3.025062656641604
29.20289205152133,3.018796992481203
29.235034933686773,3.0137844611528823
29.26718021770456,3.018796992481203
29.299327804998402,3.0213032581453634
29.331477596991967,3.020050125313283
29.36362949510896,3.011278195488722
29.39578340077306,3.0213032581453634
29.427939215407964,3.0162907268170427
29.46009684043735,3.0162907268170427
29.49225617728493,3.018796992481203
29.524417127374363,3.031328320802005
29.556579592129363,3.011278195488722
29.588743472973604,3.020050125313283
29.620908671330785,3.026315789473684
29.653075088624586,3.017543859649123
29.685242626278708,3.0213032581453634
29.717411185716827,3.0238095238095237
29.749580668362647,3.0162907268170427
29.781750975639838,3.020050125313283
29.81392200897211,3.017543859649123
29.846093669783137,3.026315789473684
29.87826585949662,3.025062656641604
29.910438479536232,3.017543859649123
29.942611431325684,3.026315789473684
29.974784616288645,3.012531328320802
30.006957935848817,3.0150375939849625
30.03913129142988,3.020050125313283
30.07130458445553,3.017543859649123
30.10347771634946,3.017543859649123
30.135650588535345,3.025062656641604
30.16782310243689,3.0225563909774436
30.199995159477773,3.0225563909774436
30.232166661081692,3.0238095238095237
30.264337508672327,3.030075187969925
30.296507603673376,3.0238095238095237
30.328676847508518,3.0162907268170427
30.36084514160146,3.0150375939849625
30.393012387375865,3.012531328320802
30.425178486255447,3.026315789473684
30.45734333966388,3.0238095238095237
30.489506849024867,3.018796992481203
30.521668915762078,3.012531328320802
30.553829441299218,3.025062656641604
30.58598832705997,3.0213032581453634
30.618145474468026,3.012531328320802
30.65030078494707,3.0162907268170427
30.68245416,3.020050125313283
30.714605500812894,3.0238095238095237
30.746754709047053,3.0325814536340854
30.778901686046954,3.0150375939849625
30.811046333236302,3.0137844611528823
30.843188552038768,3.018796992481203
30.875328243878055,3.012531328320802
30.907465310177844,3.0238095238095237
30.93959965236183,3.025062656641604
30.97173117,3.018796992481203
31.003859770077145,3.0225563909774436
31.03598534845585,3.018796992481203
31.068107808413508,3.0213032581453634
31.100227051373803,3.026315789473684
31.132342978760438,3.0213032581453634
31.16445549199708,3.0137844611528823
31.19656449250744,3.020050125313283
31.22866988171519,3.0238095238095237
31.260771561044038,3.0225563909774436
31.29286943191765,3.030075187969925
31.324963395759738,3.0225563909774436
31.357053353993972,3.0288220551378444
31.38913920804406,3.0213032581453634
31.421220859333673,3.036340852130326
31.453298209286515,3.062656642
31.48537115932626,3.063909774
31.517439610876615,3.0776942355889725
31.549503465361255,3.0852130325814535
31.58156262420388,3.107769423558897
31.613616988828166,3.119047619047619
31.645666460657818,3.1666666666666665
31.67771094111651,3.2042606516290726
31.709750331627944,3.2406015037593985
31.741784533615796,3.280701754385965
31.773813448503773,3.2656641604010024
31.805836977715547,3.2781954887218046
31.83785502267482,3.338345864661654
31.86986748480527,3.4147869674185465
31.901874265530598,3.4674185463659146
31.93387526627448,3.5426065162907268
31.96587038846062,3.5275689223057647
31.997859533512692,3.636591478696742
32.0298426,3.6315789473684212
32.06181949790942,3.6353383458646618
32.09379012010145,3.7105263157894735
32.12575437085418,3.7844611528822054
32.15771215,3.7719298245614032
32.18966336373648,3.6340852130325816
32.22160790871344,3.568922305764411
32.25354568794584,3.4774436090225564
32.285476602857386,3.3320802005012533
32.31740055487177,3.273182957393484
32.34931744541267,3.1867167919799497
32.38122717590378,3.1290726817042605
32.41312965,3.091478696741855
32.445024762431395,3.0576441102756893
32.476912421315276,3.0513784461152884
32.50879252584412,3.0526315789473686
32.54066497744163,3.0288220551378444
32.57252967753148,3.0350877192982457
32.604386527537365,3.0225563909774436
32.636235428882976,3.025062656641604
32.66807628,3.030075187969925
32.69990899128812,3.017543859649123
32.73173345519504,3.020050125313283
32.76354957613644,3.0137844611528823
32.79535725553602,3.025062656641604
32.82715639481744,3.0225563909774436
32.85894689540442,3.012531328320802
32.89072865872064,3.0150375939849625
32.92250158618979,3.031328320802005
32.954265579235546,3.0162907268170427
32.98602053928162,3.0213032581453634
33.01776636775168,3.008771929824561
33.04950296606943,3.020050125313283
33.08123023565855,3.020050125313283
33.11294807794274,3.018796992481203
33.144656394345674,3.018796992481203
33.17635508629106,3.0213032581453634
33.20804405520256,3.0100250626566414
33.2397232,3.026315789473684
33.271392429618736,3.0162907268170427
33.303051637970775,3.0150375939849625
33.33470073,3.0162907268170427
33.366339604081205,3.012531328320802
33.39796816468697,3.0238095238095237
33.42958631,3.0137844611528823
33.461193948118066,3.026315789473684
33.49279097379077,3.0275689223057642
33.52437729066649,3.0150375939849625
33.55595280016894,3.012531328320802
33.587517403721776,3.020050125313283
33.61907100274871,3.020050125313283
33.650613498673415,3.018796992481203
33.68214479,3.0162907268170427
33.71366478691094,3.0100250626566414
33.74517338207113,3.0288220551378444
33.77667047982385,3.031328320802005
33.80815606416721,3.026315789473684
33.83963073133907,3.0162907268170427
33.871095352755184,3.0137844611528823
33.90255080114585,3.020050125313283
33.93399795,3.025062656641604
33.965437669772164,3.017543859649123
33.99687083546846,3.020050125313283
34.028298319060596,3.030075187969925
34.05972099327891,3.0225563909774436
34.09113973085373,3.0238095238095237
34.12255540451537,3.0225563909774436
34.15396888699415,3.025062656641604
34.18538105,3.0238095238095237
34.21679276932444,3.026315789473684
34.24820491463659,3.0225563909774436
34.27961835968718,3.030075187969925
34.31103397720652,3.025062656641604
34.34245263992495,3.025062656641604
34.37387522057278,3.0388471177944862
34.405302591880336,3.0350877192982457
34.43673562657794,3.031328320802005
34.46817519739592,3.0588972431077694
34.499622177064595,3.043859649122807
34.53107743831429,3.1416040100250626
34.56254185387532,3.100250626566416
34.59401629647802,3.206766917293233
34.62550164,3.1954887218045114
34.656998753729695,3.2493734335839597
34.68850851383932,3.2343358395989976
34.72003179191189,3.2832080200501252
34.75156946067775,3.293233082706767
34.78312239286721,3.2894736842105265
34.814691461210586,3.3308270676691727
34.84627753843822,3.3684210526315788
34.87788149728041,3.354636591478697
34.90950421,3.300751879699248
34.941146550729805,3.2781954887218046
34.97280939079765,3.219298245614035
35.00449360340134,3.182957393483709
35.03620006127123,3.1466165413533833
35.06792963713762,3.101503759398496
35.09968320373084,3.1090225563909772
35.13146163378121,3.117794486215539
35.16326580001906,3.082706766917293
35.195096575174695,3.087719298245614
35.22695483197847,3.0601503759398496
35.25884144316067,3.0701754385964914
35.29075728145164,3.030075187969925
35.32270322,3.0388471177944862
35.354680130281174,3.0576441102756893
35.386688886280375,3.0325814536340854
35.418730360309645,3.030075187969925
35.45080542509928,3.0225563909774436
35.482914953379634,3.043859649122807
35.51505982,3.0213032581453634
35.54724089133372,3.025062656641604
35.57945904646811,3.0162907268170427
35.61171516,3.0150375939849625
35.64401009,3.020050125313283
35.67634472926454,3.0213032581453634
35.70871993842884,3.0213032581453634
35.74113659292644,3.031328320802005
35.77359556548763,3.0350877192982457
35.806097728842765,3.0238095238095237
35.83864395572214,3.045112781954887
35.871235118856106,3.0401002506265664
35.903872090974964,3.0538847117794488
35.936555358102616,3.056390977443609
35.969283524641185,3.0651629072681703
36.002054623527044,3.093984962406015
36.03486668756567,3.0977443609022557
36.06771774956255,3.1140350877192984
36.100605842323155,3.1591478696741855
36.13352899865298,3.1679197994987467
36.16648525135748,3.211779448621554
36.19947263324217,3.2531328320802007
36.232489177112505,3.255639097744361
36.26553291577398,3.3320802005012533
36.298601882032074,3.370927318295739
36.33169410869226,3.3847117794486214
36.36480762856003,3.409774436090226
36.39794047444086,3.4135338345864663
36.43109067914022,3.5401002506265664
36.46425627546361,3.581453634085213
36.497435296216494,3.612781954887218
36.530625774204374,3.6303258145363406
36.56382574223271,3.680451127819549
36.59703323310699,3.7030075187969924
36.63024628,3.8157894736842106
36.663462914615316,3.870927318295739
36.696681170860316,4
36.729899081173194,3.973684210526316
36.763114678359415,3.9661654135338344
36.79632599522447,3.870927318295739
36.82953106457383,3.7944862155388472
36.86272791921299,3.6842105263157894
36.895914591947424,3.4786967418546366
36.92908911558261,3.3421052631578947
36.96224952292403,3.2493734335839597
36.995393846777176,3.1967418546365916
37.02852011994751,3.1478696741854635
37.06162637524053,3.087719298245614
37.094710645461696,3.0588972431077694
37.127770963416516,3.050125313283208
37.160805361910455,3.050125313283208
37.19381187,3.0388471177944862
37.22678853173762,3.020050125313283
37.25973336868181,3.025062656641604
37.29264441738704,3.025062656641604
37.32551971,3.0275689223057642
37.35835728130257,3.0238095238095237
37.39115516212382,3.018796992481203
37.42391138592805,3.025062656641604
37.45662398552073,3.0213032581453634
37.48929099370733,3.0213032581453634
37.52191044329335,3.0162907268170427
37.55448036708426,3.017543859649123
37.58699879788555,3.018796992481203
37.61946376850269,3.0150375939849625
37.65187331174117,3.018796992481203
37.68422546040646,3.017543859649123
37.71651824730406,3.018796992481203
37.748749705239426,3.0213032581453634
37.78091786701806,3.017543859649123
37.81302076544543,3.0162907268170427
37.84505643332703,3.0150375939849625
37.87702290346832,3.0238095238095237
37.90891820868949,3.0225563909774436
37.94074104963189,3.0162907268170427
37.97249257716539,3.0100250626566414
38.0041745,3.0162907268170427
38.03578854267295,3.017543859649123
38.06733640598065,3.025062656641604
38.09881980654673,3.0100250626566414
38.13024045703802,3.017543859649123
38.16160007012134,3.008771929824561
38.192900358463504,3.017543859649123
38.22414303473134,3.007518796992481
38.25532981159168,3.011278195488722
38.286462401711326,3.008771929824561
38.317542517757126,3.007518796992481
38.34857187239587,3.011278195488722
38.37955217829442,3.020050125313283
38.41048514811956,3.0225563909774436
38.44137249453814,3.011278195488722
38.47221593021697,3.0162907268170427
38.503017167822875,3.0137844611528823
38.53377792002268,3.0150375939849625
38.5644999,3.0225563909774436
38.59518481887127,3.0162907268170427
38.625834390853704,3.0100250626566414
38.65645032809733,3.012531328320802
38.68703434326896,3.0150375939849625
38.71758814903543,3.017543859649123
38.74811345806356,3.007518796992481
38.778611983020156,3.0162907268170427
38.80908543657206,3.0137844611528823
38.83953553138609,3.0137844611528823
38.869963980129064,3.0225563909774436
38.900372495467806,3.011278195488722
38.93076279006915,3.0162907268170427
38.96113658,3.0137844611528823
38.99149556772689,3.008771929824561
39.02184147611694,3.0100250626566414
39.052176014436874,3.0162907268170427
39.082500895353505,3.012531328320802
39.112817831533675,3.0137844611528823
39.14312853564418,3.006265664160401
39.17343472035187,3.0225563909774436
39.203738098323555,3.018796992481203
39.234040382226055,3.0213032581453634
39.264343284726195,3.0100250626566414
39.29464852,3.0162907268170427
39.32495779618669,3.012531328320802
39.35527283048069,3.0150375939849625
39.38559533403962,3.006265664160401
39.41592701953031,3.0162907268170427
39.44626959961956,3.0150375939849625
39.47662478697423,3.0162907268170427
39.506994294261105,3.007518796992481
39.53737983414703,3.0150375939849625
39.567783119298824,3.0225563909774436
39.59820586238331,3.018796992481203
39.62864978,3.0100250626566414
39.65911657301763,3.0100250626566414
39.68960796590111,3.008771929824561
39.72012566738458,3.008771929824561
39.75067139013484,3.018796992481203
39.78124684681873,3.0162907268170427
39.81185375010307,3.012531328320802
39.84249381265468,3.012531328320802
39.87316851054617,3.017543859649123
39.90387798,3.007518796992481
39.93462189870806,3.0150375939849625
39.96539992773627,3.008771929824561
39.99621173889492,3.0137844611528823
40.027057001308236,3.0162907268170427
40.05793538410041,3.0137844611528823
40.08884655639565,3.006265664160401
40.11979018731816,3.008771929824561
40.15076594599215,3.0100250626566414
40.18177350154182,3.0150375939849625
40.21281252309138,3.0162907268170427
40.243882679765036,3.0137844611528823
40.27498364,3.008771929824561
40.306115074981456,3.0137844611528823
40.33727665177263,3.017543859649123
40.36846804018472,3.0150375939849625
40.39968890934194,3.0162907268170427
40.430938928368484,3.018796992481203
40.46221776638856,3.012531328320802
40.49352509252638,3.0275689223057642
40.52486057590615,3.012531328320802
40.55622388565207,3.007518796992481
40.587614690888344,3.0100250626566414
40.61903266073918,3.012531328320802
40.650477464328794,3.018796992481203
40.681948770781375,3.008771929824561
40.71344624922114,3.011278195488722
40.74496956877229,3.020050125313283
40.776518398559034,3.0100250626566414
40.808092407705566,3.007518796992481
40.839691265336114,3.0162907268170427
40.87131464057486,3.008771929824561
40.90296220254603,3.017543859649123
40.934633620373816,3.0100250626566414
40.96632856318243,3.0137844611528823
40.99804670009607,3.011278195488722
41.029787700238955,3.012531328320802
41.061551232735276,3.0100250626566414
41.09333696670925,3.020050125313283
41.12514457128508,3.007518796992481
41.156973715586965,3.0137844611528823
41.188824068739116,3.011278195488722
41.220695299865746,3.012531328320802
41.25258707809105,3.0150375939849625
41.284499072539234,3.011278195488722
41.31643095233451,3.0137844611528823
41.34838238660108,3.0150375939849625
41.38035304446314,3.0100250626566414
41.41234259504492,3.0137844611528823
41.444350707470605,3.0162907268170427
41.476377050864414,3.0225563909774436
41.50842129435053,3.0137844611528823
41.54048311,3.0150375939849625
41.57256215809658,3.012531328320802
41.60465811660492,3.0050125313283207
41.636770651702385,3.0050125313283207
41.668899432513214,3.018796992481203
41.70104413,3.020050125313283
41.73320440777175,3.0137844611528823
41.76537994046786,3.0162907268170427
41.79757039537415,3.011278195488722
41.82977544161482,3.0162907268170427
41.86199474831408,3.0100250626566414
41.89422798459612,3.0137844611528823
41.926474819585174,3.0137844611528823
41.95873492240541,3.012531328320802
41.991007962181065,3.006265664160401
42.02329360803634,3.008771929824561
42.05559152909542,3.011278195488722
42.08790139448254,3.011278195488722
42.120222873321886,3.0137844611528823
42.15255563473767,3.0050125313283207
42.18489935,3.0100250626566414
42.21725368179538,3.017543859649123
42.24961831,3.0137844611528823
42.28199288864929,3.006265664160401
42.31437709981034,3.0100250626566414
42.34677060829307,3.011278195488722
42.379173083221666,3.0137844611528823
42.41158419372036,3.0025062656641603
42.44400360891333,3.0150375939849625
42.476430997924794,3.006265664160401
42.50886602987896,3.0162907268170427
42.54130837390004,3.0100250626566414
42.573757699112214,3.0100250626566414
42.60621367463972,3.0137844611528823
42.63867596960674,3.017543859649123
42.67114425313749,3.0137844611528823
42.703618194356174,3.011278195488722
42.73609746,3.012531328320802
42.768581726354164,3.007518796992481
42.80107065538189,3.012531328320802
42.833563918594365,3.012531328320802
42.866061185115804,3.0100250626566414
42.89856212407041,3.008771929824561
42.931066404582396,3.0100250626566414
42.963573695775956,3.006265664160401
42.996083666775306,3.006265664160401
43.02859598670464,3.006265664160401
43.06111032468817,3.008771929824561
43.093626349850105,3.011278195488722
43.126143731314656,3.006265664160401
43.15866213820601,3.012531328320802
43.191181239648394,3.0150375939849625
43.22370070476599,3.0100250626566414
43.256220202683025,3.0137844611528823
43.288739402523696,3.017543859649123
43.32125797341221,3.0100250626566414
43.353775584472764,3.0100250626566414
43.386291904829584,3.008771929824561
43.41880660360685,3.0150375939849625
43.451319349928795,3.011278195488722
43.48382981,3.012531328320802
43.51633767137891,3.020050125313283
43.548842771648246,3.017543859649123
43.581345101780386,3.008771929824561
43.613844654291945,3.012531328320802
43.64634142169956,3.011278195488722
43.67883539651984,3.0150375939849625
43.71132657126941,3.0150375939849625
43.74381494,3.017543859649123
43.77630049062294,3.011278195488722
43.808783220260125,3.0137844611528823
43.841263119893114,3.011278195488722
43.873740182038496,3.012531328320802
43.90621439921293,3.0100250626566414
43.93868576,3.008771929824561
43.97115426871536,3.011278195488722
44.003619906076615,3.0100250626566414
44.03608267,3.0150375939849625
44.06854254860233,3.007518796992481
44.10099953880004,3.011278195488722
44.13345363164313,3.0100250626566414
44.16590481964825,3.0150375939849625
44.198353095331996,3.018796992481203
44.230798451211015,3.008771929824561
44.26324087980191,3.008771929824561
44.29568037362133,3.0100250626566414
44.32811692518587,3.0162907268170427
44.36055052701217,3.0100250626566414
44.392981171616846,3.0037593984962405
44.42540885151652,3.0100250626566414
44.45783355922782,3.012531328320802
44.49025528726738,3.007518796992481
44.52267403,3.0100250626566414
44.555089774397715,3.0137844611528823
44.587502518521745,3.012531328320802
44.61991225304052,3.011278195488722
44.65231897047065,3.008771929824561
44.68472266332878,3.011278195488722
44.71712332,3.0050125313283207
44.74952094539547,3.008771929824561
44.78191551963728,3.0162907268170427
44.81430703937358,3.012531328320802
44.84669549712097,3.0137844611528823
44.87908088539609,3.0100250626566414
44.91146319671556,3.008771929824561
44.94384242,3.0037593984962405
44.97621855855403,3.006265664160401
45.008591594106285,3.011278195488722
45.040961522769365,3.007518796992481
45.07332833705992,3.008771929824561
45.105692029494556,3.011278195488722
45.13805259258991,3.008771929824561
45.17041001886258,3.0025062656641603
45.202764300829216,3.011278195488722
45.23511543100642,3.007518796992481
45.26746340191084,3.012531328320802
45.29980820605907,3.020050125313283
45.332149835967755,3.0137844611528823
45.36448828415351,3.008771929824561
45.39682354313296,3.0100250626566414
45.42915560542272,3.0100250626566414
45.46148446353943,3.012531328320802
45.493810109999686,3.0150375939849625
45.526132537320144,3.0100250626566414
45.558451738017396,3.011278195488722
45.59076770460809,3.0162907268170427
45.623080429608834,3.006265664160401
45.65538990553627,3.007518796992481
45.687696124906985,3.012531328320802
45.71999908023764,3.007518796992481
45.75229876404483,3.0025062656641603
45.78459517,3.0100250626566414
45.81688828715536,3.008771929824561
45.84917811149194,3.008771929824561
45.88146463437155,3.012531328320802
45.913747848310834,3.008771929824561
45.94602774582639,3.011278195488722
45.97830431943486,3.008771929824561
46.010577561652866,3.008771929824561
46.04284746499702,3.007518796992481
46.07511402198396,3.0037593984962405
46.10737722513029,3.0150375939849625
46.13963706695266,3.0100250626566414
46.17189353996766,3.008771929824561
46.20414663669194,3.0137844611528823
46.236396349642106,3.0150375939849625
46.268642671334796,3.0100250626566414
46.30088559428662,3.0162907268170427
46.33312511101421,3.0100250626566414
46.36536121403418,3.011278195488722
46.39759389586317,3.0050125313283207
46.42982314901777,3.0100250626566414
46.46204896601464,3.0137844611528823
46.494271339370385,3.011278195488722
46.52649026160164,3.0100250626566414
46.55870573,3.006265664160401
46.59091772275712,3.011278195488722
46.62312625,3.008771929824561
46.65533128961408,3.0050125313283207
46.68753284397217,3.0137844611528823
46.719730902305514,3.012531328320802
46.75192546,3.012531328320802
46.78411650096439,3.0162907268170427
46.816304026323174,3.018796992481203
46.84848803,3.007518796992481
46.88066849168257,3.0137844611528823
46.91284541671642,3.020050125313283
46.94501879334187,3.0100250626566414
46.97718861407555,3.0037593984962405
47.00935487143407,3.0162907268170427
47.041517557934064,3.012531328320802
47.07367666609215,3.012531328320802
47.10583218842495,3.0150375939849625
47.137984117449086,3.012531328320802
47.17013244568119,3.0137844611528823
47.202277165637874,3.0213032581453634
47.23441826983577,3.0162907268170427
47.26655575079149,3.0137844611528823
47.29868960102168,3.0225563909774436
47.33081981304293,3.018796992481203
47.36294637937189,3.0213032581453634
47.395069292525164,3.018796992481203
47.42718855,3.030075187969925
47.45930412937118,3.0426065162907268
47.49141603809718,3.0350877192982457
47.52352426371398,3.0538847117794488
47.555628798738226,3.0538847117794488
47.58772963568653,3.0526315789473686
47.61982676707552,3.075187969924812
47.651920185421815,3.0764411027568923
47.68400988324205,3.082706766917293
47.71609585305282,3.1027568922305764
47.74817808737079,3.080200501253133
47.78025657871254,3.0588972431077694
47.812331319594726,3.0676691729323307
47.84440230253395,3.075187969924812
47.876469520046854,3.092731829573935
47.90853296465004,3.091478696741855
47.94059262886015,3.098997493734336
47.97264850519379,3.1040100250626566
48.00470059,3.0964912280701755
48.03674886429819,3.1340852130325816
48.06879333210219,3.112781954887218
48.10083398209621,3.119047619047619
48.13287081,3.1152882205513786
48.16490379872086,3.145363408521303
48.19693295038472,3.1466165413533833
48.22895825,3.1491228070175437
48.26097970299863,3.1203007518796992
48.29299728898192,3.1040100250626566
48.32501100477162,3.1027568922305764
48.35702084288432,3.110275689223058
48.38902679583666,3.0776942355889725
48.42102885614526,3.056390977443609
48.45302701632676,3.0676691729323307
48.48502126889775,3.0275689223057642
48.51701160637488,3.025062656641604
48.548998021640514,3.0238095238095237
48.58098054067279,3.0225563909774436
48.612959248458445,3.0275689223057642
48.644934236082285,3.0150375939849625
48.67690559462911,3.011278195488722
48.708873415183724,3.0100250626566414
48.740837788830916,3.008771929824561
48.772798806655516,3.011278195488722
48.80475656,3.0100250626566414
48.83671113917609,3.0100250626566414
48.86866263604167,3.008771929824561
48.90061114142386,3.007518796992481
48.93255674640745,3.011278195488722
48.964499542077256,3.0150375939849625
48.996439619518064,3.0150375939849625
49.02837706981469,3.008771929824561
49.06031198405193,3.011278195488722
49.09224445331459,3.008771929824561
49.124174568687465,3.007518796992481
49.15610242125537,3.006265664160401
49.1880281,3.007518796992481
49.219951702315456,3.0150375939849625
49.25187331297724,3.017543859649123
49.28379302517326,3.0100250626566414
49.31571092998831,3.011278195488722
49.34762711850721,3.007518796992481
49.37954168181474,3.011278195488722
49.41145471099573,3.012531328320802
49.44336629713495,3.007518796992481
49.47527653131723,3.011278195488722
49.50718550462735,3.007518796992481
49.539093308150136,3.007518796992481
49.571000032970375,3.0150375939849625
49.602905770172875,3.011278195488722
49.63481061084243,3.017543859649123
49.66671464606385,3.011278195488722
49.69861796692194,3.008771929824561
49.730520664501505,3.0162907268170427
49.76242282988733,3.007518796992481
49.79432455416424,3.0025062656641603
49.82622592841702,3.012531328320802
49.858127043730484,3.007518796992481
49.89002799118943,3.0100250626566414
49.92192886187866,3.011278195488722
49.953829746882974,3.0100250626566414
49.985730737287184,3.0100250626566414
50.01763192417608,3.008771929824561
50.04953339863447,3.011278195488722
50.08143525174717,3.017543859649123
50.11333757459896,3.012531328320802
50.14524045827466,3.0100250626566414
50.17714399385906,3.007518796992481
50.20904827243697,3.0137844611528823
50.240953385093185,3.011278195488722
50.272859422912525,3.007518796992481
50.30476647697977,3.0025062656641603
50.33667463837974,3.007518796992481
50.36858399819723,3.007518796992481
50.40049464751704,3.008771929824561
50.43240667742398,3.012531328320802
50.46432017900285,3.0137844611528823
50.49623524333844,3.008771929824561
50.528151961515576,3.0100250626566414
50.56007042461904,3.011278195488722
50.59199072373365,3.012531328320802
50.62391294994419,3.008771929824561
50.65583719433549,3.0150375939849625
50.687763547992326,3.0100250626566414
50.71969210199951,3.008771929824561
50.75162294744185,3.0150375939849625
50.78355617540415,3.011278195488722
50.815491876971194,3.0100250626566414
50.84743014322781,3.006265664160401
50.87937106525878,3.008771929824561
50.91131473414892,3.011278195488722
50.94326124098302,3.007518796992481
50.97521068,3.0137844611528823
51.007163132822335,3.008771929824561
51.03911869999716,3.018796992481203
51.071077469455155,3.011278195488722
51.10303953228114,3.006265664160401
51.135004979559895,3.018796992481203
51.16697390237624,3.001253133
51.19894639181497,3.007518796992481
51.23092254,3.007518796992481
51.26290243489881,3.0100250626566414
51.294886170713525,3.0100250626566414
51.326873837489835,3.012531328320802
51.35886552631255,3.0050125313283207
51.39086132826646,3.0050125313283207
51.422861334436384,3.0100250626566414
51.454865635907105,3.007518796992481
51.486874323763445,3.008771929824561
51.51888749,3.006265664160401
51.55090522297216,3.007518796992481
51.582927616494146,3.007518796992481
51.61495476074096,3.0050125313283207
51.64698674679739,3.011278195488722
51.67902366574825,3.0100250626566414
51.711065608678325,3.0050125313283207
51.743112666672445,3.008771929824561
51.77516493081539,3.017543859649123
51.80722249219199,3.012531328320802
51.83928544188701,3.007518796992481
51.87135387098528,3.006265664160401
51.90342787057159,3.0037593984962405
51.93550753173076,3.008771929824561
51.96759294554756,3.007518796992481
51.999684203106824,3.006265664160401
52.03178139549333,3.0050125313283207
52.06388461379191,3.0162907268170427
52.09599394908734,3.0037593984962405
52.12810949246444,3.008771929824561
52.16023133500799,3.007518796992481
52.192359567802825,3.0050125313283207
52.224494281933715,3.008771929824561
52.256635568485486,3.007518796992481
52.28878351854293,3.0100250626566414
52.32093822319085,3.0100250626566414
52.35309977351405,3.0050125313283207
52.385268260597336,3.008771929824561
52.417443775525506,3.011278195488722
52.44962640938336,3.008771929824561
52.48181625325571,3.007518796992481
52.514013398227355,3.008771929824561
52.54621793538309,3.008771929824561
52.57842995580773,3.0025062656641603
52.61064955058606,3.007518796992481
52.64287681,3.0100250626566414
52.67511182754304,3.011278195488722
52.707354691891304,3.0100250626566414
52.73960549493246,3.006265664160401
52.771864327751345,3.0150375939849625
52.80413128143273,3.0100250626566414
52.83640644706145,3.0100250626566414
52.868689915722285,3.006265664160401
52.90098177850005,3.0100250626566414
52.933282126479526,3.011278195488722
52.965591050745545,3.007518796992481
52.99790864238288,3.007518796992481
53.030234992476366,3.011278195488722
53.06257019211078,3.0137844611528823
53.09491433237094,3.001253133
53.12726750434163,3.008771929824561
53.15962979910768,3.007518796992481
53.19200130775386,3.006265664160401
53.224382114952775,3.008771929824561
53.25677211057196,3.0100250626566414
53.28917096,3.006265664160401
53.32157831234289,3.0050125313283207
53.353993822270475,3.0025062656641603
53.38641714074334,3.007518796992481
53.41884791964943,3.012531328320802
53.451285810876634,3.0037593984962405
53.48373046631289,3.012531328320802
53.51618153784611,3.012531328320802
53.54863868,3.006265664160401
53.581101536755085,3.006265664160401
53.613569767906675,3.0050125313283207
53.64604302270689,3.006265664160401
53.67852095304365,3.007518796992481
53.71100321080486,3.006265664160401
53.74348944787845,3.0100250626566414
53.77597931615232,3.0100250626566414
53.80847246751441,3.011278195488722
53.84096855385261,3.011278195488722
53.87346722705485,3.008771929824561
53.90596813900905,3.0037593984962405
53.938470941603114,3.008771929824561
53.97097528672496,3.011278195488722
54.00348082626252,3.0037593984962405
54.035987212103684,3.0100250626566414
54.068494096136384,3.0100250626566414
54.101001130248534,3.006265664160401
54.13350796632807,3.007518796992481
54.16601425626287,3.008771929824561
54.19851965194086,3.0137844611528823
54.23102380524998,3.0100250626566414
54.26352636807814,3.007518796992481
54.29602699231324,3.0162907268170427
54.32852532984319,3.012531328320802
54.361021032555925,3.008771929824561
54.39351375233937,3.011278195488722
54.42600314108142,3.006265664160401
54.45848885066999,3.0050125313283207
54.49097053,3.0137844611528823
54.52344783993839,3.007518796992481
54.55592042339404,3.007518796992481
54.58838793524789,3.007518796992481
54.62085002738784,3.006265664160401
54.653306351701836,3.0100250626566414
54.68575656007775,3.0162907268170427
54.71820030440353,3.006265664160401
54.75063723656707,3.011278195488722
54.78306700845633,3.0150375939849625
54.81548927195917,3.006265664160401
54.84790367896354,3.008771929824561
54.88030988135734,3.0150375939849625
54.91270753102851,3.012531328320802
54.945096279864934,3.0137844611528823
54.97747577975455,3.0100250626566414
55.009845682585265,3.011278195488722
55.042205640245015,3.011278195488722
55.07455530462168,3.0025062656641603
55.10689433,3.008771929824561
55.139222361077486,3.011278195488722
55.17153905693247,3.0100250626566414
55.20384406705603,3.008771929824561
55.236137043336115,3.0100250626566414
55.268417637660626,3.008771929824561
55.300685501917506,3.0137844611528823
55.332940287994624,3.020050125313283
55.365181647779934,3.006265664160401
55.39740923316133,3.0162907268170427
55.42962269602676,3.012531328320802
55.461821688264095,3.008771929824561
55.49400586176128,3.012531328320802
55.52617486840623,3.0100250626566414
55.55832836008686,3.007518796992481
55.59046598869108,3.012531328320802
55.622587406106796,3.007518796992481
55.65469226422195,3.0137844611528823
55.68678021492445,3.0150375939849625
55.71885091,3.008771929824561
55.750904001643114,3.0037593984962405
55.78293914143512,3.0037593984962405
55.814955981366154,3.0162907268170427
55.846954173324086,3.006265664160401
55.87893336919686,3.017543859649123
55.91089322087239,3.011278195488722
55.94283338,3.018796992481203
55.974753499183386,3.012531328320802
56.00665322959467,3.006265664160401
56.03853222336038,3.020050125313283
56.07039013236843,3.012531328320802
56.10222660850672,3.0100250626566414
56.13404130366318,3.012531328320802
56.16583386972572,3.017543859649123
56.197604018156774,3.020050125313283
56.229351938633876,3.018796992481203
56.26107805096608,3.0150375939849625
56.29278277643284,3.017543859649123
56.32446653631361,3.017543859649123
56.35612975188781,3.0350877192982457
56.38777284443492,3.0288220551378444
56.419396235234366,3.026315789473684
56.451000345565625,3.0388471177944862
56.482585596708105,3.0388471177944862
56.514152409941275,3.043859649122807
56.545701206544585,3.055137844611529
56.577232407797496,3.043859649122807
56.60874643497942,3.0789473684210527
56.640243709369834,3.0864661654135337
56.671724652248166,3.1303258145363406
56.70318968,3.126566416
56.73463922858644,3.119047619047619
56.766073704605255,3.1466165413533833
56.79749353422979,3.119047619047619
56.82889913873951,3.1340852130325816
56.86029093941383,3.1090225563909772
56.89166935753222,3.1528822055137846
56.92303481437412,3.1842105263157894
56.95438773,3.189223058
56.98572852934627,3.224310776942356
57.01705763,3.2343358395989976
57.048375454565836,3.2205513784461153
57.07968242421704,3.243107769423559
57.11097896026843,3.2468671679197993
57.14226548399947,3.191729323308271
57.173542416689614,3.2155388471177946
57.20481017961831,3.226817042606516
57.236069194064996,3.2393483709273183
57.26731988130912,3.2781954887218046
57.298562662630125,3.3283208020050123
57.32979795930749,3.3471177944862154
57.36102619262063,3.337092731829574
57.39224778,3.324561403508772
57.42346315427205,3.3508771929824563
57.454672725169246,3.3095238095238093
57.48587691782001,3.299498746867168
57.517076153503794,3.2468671679197993
57.54827085350006,3.2130325814536342
57.57946143908825,3.1979949874686717
57.61064833154781,3.1528822055137846
57.64183197363562,3.142857142857143
57.67301302974036,3.1165413533834587
57.70419229495925,3.0714285714285716
57.73537056607722,3.0588972431077694
57.76654863987924,3.0526315789473686
57.797727313150254,3.0275689223057642
57.82890738267525,3.0275689223057642
57.86008964523913,3.0225563909774436
57.891274897626886,3.0238095238095237
57.92246393662346,3.025062656641604
57.95365755901382,3.018796992481203
57.98485656,3.012531328320802
58.01606174111567,3.008771929824561
58.04727389439708,3.012531328320802
58.07849381821208,3.012531328320802
58.10972230934565,3.0050125313283207
58.14096016458271,3.007518796992481
58.172208180708225,3.0150375939849625
58.203467154507166,3.011278195488722
58.234737882764485,3.0162907268170427
58.26602116226511,3.0150375939849625
58.29731778979402,3.0150375939849625
58.328628562136174,3.007518796992481
58.35995427607652,3.008771929824561
58.39129573,3.007518796992481
58.422653715891585,3.012531328320802
58.45402903533622,3.0050125313283207
58.485422483518875,3.011278195488722
58.51683485722449,3.018796992481203
58.54826695323801,3.0100250626566414
58.579719568344416,3.0100250626566414
58.611193499328664,3.0100250626566414
58.64268954297568,3.008771929824561
58.674208496070435,3.0100250626566414
58.705751155397884,3.008771929824561
58.73731832,3.008771929824561
58.76891078,3.012531328320802
58.800529338625964,3.0050125313283207
58.83217479073374,3.0150375939849625
58.86384793299899,3.008771929824561
58.89554956220666,3.0100250626566414
58.92728047514171,3.006265664160401
58.959041468589085,3.007518796992481
58.99083333933376,3.008771929824561
59.022656884160675,3.008771929824561
59.05451286718647,3.0150375939849625
59.08640111710466,3.0050125313283207
59.118320411834084,3.0050125313283207
59.15026947345709,3.0050125313283207
59.182247024056046,3.0100250626566414
59.214251785713316,3.012531328320802
59.24628248051129,3.011278195488722
59.278337830532294,3.008771929824561
59.310416557858716,3.008771929824561
59.34251738457291,3.0050125313283207
59.374639032757266,3.007518796992481
59.40678022449411,3.012531328320802
59.43893968186583,3.011278195488722
59.47111612695479,3.012531328320802
59.50330828184337,3.0037593984962405
59.53551487,3.011278195488722
59.56773460934877,3.012531328320802
59.59996622613033,3.007518796992481
59.632208441040966,3.011278195488722
59.66445997616302,3.007518796992481
59.696719553578866,3.006265664160401
59.72898589537087,3.007518796992481
59.76125772362141,3.006265664160401
59.79353376041283,3.0025062656641603
59.82581273,3.0037593984962405
59.85809334794778,3.007518796992481
59.89037434285607,3.0100250626566414
59.92265443463469,3.0050125313283207
59.95493234536602,3.012531328320802
59.98720679713242,3.008771929824561
60.01947651201629,3.0050125313283207
60.05174021209995,3.011278195488722
60.08399661946578,3.007518796992481
60.11624445619615,3.0137844611528823
60.148482444373435,3.0025062656641603
60.18070930607998,3.0037593984962405
60.21292376339815,3.011278195488722
60.24512453841032,3.001253133
60.27731035319887,3.012531328320802
60.309479929846134,3.0025062656641603
60.34163199043449,3.011278195488722
60.37376525704631,3.0100250626566414
60.405878451763954,3.0050125313283207
60.43797029666978,3.0050125313283207
60.47003988321306,3.0100250626566414
60.50208808991499,3.0050125313283207
60.53411633503004,3.008771929824561
60.566126036926484,3.0025062656641603
60.59811861397261,3.012531328320802
60.63009548,3.006265664160401
60.66205806698707,3.008771929824561
60.694007779691965,3.012531328320802
60.72594604101968,3.011278195488722
60.75787426933851,3.0050125313283207
60.78979388301675,3.012531328320802
60.82170630042266,3.0137844611528823
60.85361293992454,3.0050125313283207
60.88551521989067,3.0100250626566414
60.91741455868936,3.0025062656641603
60.94931237468886,3.012531328320802
60.98121008625746,3.007518796992481
61.01310911176346,3.006265664160401
61.045010869575165,3.0137844611528823
61.07691677806081,3.006265664160401
61.10882825558872,3.007518796992481
61.14074672052716,3.006265664160401
61.17267359124444,3.008771929824561
61.20461028610881,3.018796992481203
61.23655822348858,3.0100250626566414
61.268518821752025,3.006265664160401
61.300493499267446,3.008771929824561
61.332483674403115,3.0100250626566414
61.36449076552731,3.006265664160401
61.39651619100833,3.008771929824561
61.42856136921447,3.006265664160401
61.46062771851399,3.0050125313283207
61.49271665727519,3.012531328320802
61.52482960386635,3.007518796992481
61.55696797665578,3.008771929824561
61.58913319401172,3.008771929824561
61.62132667430249,3.006265664160401
61.65354983589636,3.0050125313283207
61.68580409716163,3.007518796992481
61.71809087646657,3.0100250626566414
61.75041159217947,3.0100250626566414
61.78276766266862,3.007518796992481
61.81516050630231,3.0100250626566414
61.84759130794976,3.0100250626566414
61.88005978231353,3.0037593984962405
61.91256507336575,3.011278195488722
61.94510632381636,3.0137844611528823
61.97768267637526,3.011278195488722
62.01029327375238,3.006265664160401
62.042937258657645,3.0100250626566414
62.075613773800974,3.0100250626566414
62.10832196189231,3.006265664160401
62.141060965641536,3.0100250626566414
62.17382993,3.018796992481203
62.20662799095341,3.0100250626566414
62.23945429793591,3.012531328320802
62.27230799141599,3.0100250626566414
62.305188214103595,3.0050125313283207
62.338094108708646,3.006265664160401
62.37102481794106,3.006265664160401
62.40397948451076,3.0100250626566414
62.43695725112766,3.012531328320802
62.46995726050169,3.0137844611528823
62.50297865534279,3.0150375939849625
62.53602057836084,3.0100250626566414
62.56908217226579,3.006265664160401
62.60216257976755,3.0137844611528823
62.63526094357607,3.025062656641604
62.66837640640124,3.017543859649123
62.70150811095298,3.0162907268170427
62.73465519994123,3.0213032581453634
62.76781681607593,3.026315789473684
62.80099210206695,3.0325814536340854
62.834180200624246,3.017543859649123
62.867380254457736,3.0413533834586466
62.90059140627736,3.045112781954887
62.93381279879299,3.0288220551378444
62.967043574714594,3.0388471177944862
63.000282876752074,3.0426065162907268
63.03352984761536,3.0588972431077694
63.06678363001437,3.0588972431077694
63.10004336665902,3.0526315789473686
63.133308200259236,3.072681704260652
63.16657727352496,3.068922305764411
63.19984972916608,3.062656642
63.23312470989253,3.0776942355889725
63.26640135841424,3.080200501253133
63.29967881744114,3.0764411027568923
63.33295622968313,3.0977443609022557
63.36623273785013,3.0789473684210527
63.399507484652084,3.0964912280701755
63.43277961279892,3.101503759398496
63.46604826500052,3.112781954887218
63.499312583966834,3.112781954887218
63.53257171240778,3.1240601503759398
63.56582479303329,3.145363408521303
63.599070968553264,3.1228070175438596
63.63230938167763,3.1215538847117794
63.66553917511632,3.1315789473684212
63.69875949157927,3.1503759398496243
63.73196947377636,3.1340852130325816
63.76516826441753,3.154135338345865
63.79835500621272,3.1842105263157894
63.831528841871844,3.1904761904761907
63.86468891410481,3.1766917293233083
63.89783436562155,3.1716791979949877
63.930964339131975,3.1466165413533833
63.96407797734604,3.1240601503759398
63.99717442297362,3.110275689223058
64.03025281872468,3.088972431077694
64.06331231,3.0852130325814535
64.09635203143685,3.0588972431077694
64.12937113,3.0526315789473686
64.16236875716191,3.045112781954887
64.19534404,3.0288220551378444
64.22829613757928,3.0238095238095237
64.26122418007236,3.0275689223057642
64.29412731436827,3.026315789473684
64.32700468317695,3.0162907268170427
64.35985542920832,3.0137844611528823
64.39267869517228,3.008771929824561
64.42547362377877,3.0137844611528823
64.45823936,3.017543859649123
64.49097503975901,3.0150375939849625
64.52367981255259,3.017543859649123
64.55632780550074,3.007518796992481
64.58896937347767,3.0037593984962405
64.62157956804933,3.008771929824561
64.65415862464317,3.0225563909774436
64.68670677868671,3.0025062656641603
64.71922426560741,3.0150375939849625
64.75171132,3.012531328320802
64.78416818,3.017543859649123
64.81659507790745,3.0137844611528823
64.84899225,3.0025062656641603
64.88135993333057,3.008771929824561
64.91369836149151,3.007518796992481
64.94600777052204,3.0037593984962405
64.97828839584962,3.012531328320802
65.01054047290175,3.0137844611528823
65.04276424,3.008771929824561
65.07495992388958,3.007518796992481
65.10712776868024,3.018796992481203
65.13926800690541,3.012531328320802
65.17138087399255,3.012531328320802
65.20346660536914,3.011278195488722
65.23552543646268,3.008771929824561
65.26755760270065,3.0050125313283207
65.29956333951054,3.007518796992481
65.33154288231982,3.007518796992481
65.36349646655599,3.0100250626566414
65.39542432764655,3.0050125313283207
65.42732670101896,3.006265664160401
65.45920382,3.0037593984962405
65.49105592631928,3.0100250626566414
65.52288325,3.011278195488722
65.55468602587689,3.0100250626566414
65.58646449207087,3.0137844611528823
65.61821888311164,3.0150375939849625
65.64994943442666,3.011278195488722
65.68165638144343,3.008771929824561
65.71333995958942,3.011278195488722
65.74500040429213,3.0100250626566414
65.77663795097905,3.0100250626566414
65.80825283507765,3.0050125313283207
65.83984529201543,3.0162907268170427
65.87141555721986,3.007518796992481
65.90296386611845,3.008771929824561
65.93449045413867,3.011278195488722
65.96599556,3.011278195488722
65.99747940925393,3.008771929824561
66.02894224720396,3.007518796992481