Angle,intensity
27.983286793319603,2.170903955
28.015339968333233,2.189265536723164
28.047395187653787,2.165254237288136
28.079452468771336,2.1779661016949152
28.11151182917592,2.1624293785310735
28.14357328635762,2.165254237288136
28.175636857806474,2.153954802259887
28.207702561012557,2.1850282485875705
28.239770413465912,2.170903955
28.271840432656614,2.1836158192090394
28.303912636074703,2.1624293785310735
28.335987041210252,2.1793785310734464
28.36806366555331,2.190677966101695
28.400142526593946,2.1779661016949152
28.432223641822205,2.176553672316384
28.46430702872816,2.152542372881356
28.496392704801853,2.165254237288136
28.52848068753336,2.1737288135593222
28.56057099441272,2.1610169491525424
28.59266364293001,2.156779661016949
28.624758650575274,2.1680790960451977
28.656856034838583,2.1624293785310735
28.68895581320998,2.1822033898305087
28.72105800317954,2.189265536723164
28.753162622237305,2.146892655367232
28.78526968787335,2.152542372881356
28.81737921757772,2.196327683615819
28.84949122884048,2.1638418079096047
28.881605739151684,2.175141242937853
28.91372277,2.1779661016949152
28.94584232687967,2.1454802259887007
28.977964439276573,2.1426553672316384
29.010089120682146,2.1454802259887007
29.042216388586464,2.1596045197740112
29.074346260479572,2.1920903954802258
29.106478753851544,2.1454802259887007
29.138613886192424,2.175141242937853
29.17075166978456,2.169491525423729
29.20289205152133,2.156779661016949
29.235034933686773,2.15819209
29.26718021770456,2.176553672316384
29.299327804998402,2.1596045197740112
29.331477596991967,2.1991525423728815
29.36362949510896,2.1680790960451977
29.39578340077306,2.153954802259887
29.427939215407964,2.1779661016949152
29.46009684043735,2.1497175141242937
29.49225617728493,2.170903955
29.524417127374363,2.176553672316384
29.556579592129363,2.1666666666666665
29.588743472973604,2.15819209
29.620908671330785,2.1412429378531073
29.653075088624586,2.1596045197740112
29.685242626278708,2.172316384180791
29.717411185716827,2.1610169491525424
29.749580668362647,2.1680790960451977
29.781750975639838,2.1779661016949152
29.81392200897211,2.170903955
29.846093669783137,2.1426553672316384
29.87826585949662,2.1497175141242937
29.910438479536232,2.134180790960452
29.942611431325684,2.15819209
29.974784616288645,2.1624293785310735
30.006957935848817,2.1638418079096047
30.03913129142988,2.146892655367232
30.07130458445553,2.153954802259887
30.10347771634946,2.1864406779661016
30.135650588535345,2.175141242937853
30.16782310243689,2.146892655367232
30.199995159477773,2.156779661016949
30.232166661081692,2.1483050847457625
30.264337508672327,2.153954802259887
30.296507603673376,2.132768361581921
30.328676847508518,2.139830508474576
30.36084514160146,2.1737288135593222
30.393012387375865,2.15819209
30.425178486255447,2.1596045197740112
30.45734333966388,2.1553672316384183
30.489506849024867,2.187853107344633
30.521668915762078,2.1454802259887007
30.553829441299218,2.1610169491525424
30.58598832705997,2.1610169491525424
30.618145474468026,2.172316384180791
30.65030078494707,2.1440677966101696
30.68245416,2.176553672316384
30.714605500812894,2.1596045197740112
30.746754709047053,2.176553672316384
30.778901686046954,2.1779661016949152
30.811046333236302,2.152542372881356
30.843188552038768,2.1553672316384183
30.875328243878055,2.1666666666666665
30.907465310177844,2.1412429378531073
30.93959965236183,2.1426553672316384
30.97173117,2.1440677966101696
31.003859770077145,2.1440677966101696
31.03598534845585,2.176553672316384
31.068107808413508,2.1454802259887007
31.100227051373803,2.138418079096045
31.132342978760438,2.1624293785310735
31.16445549199708,2.134180790960452
31.19656449250744,2.1483050847457625
31.22866988171519,2.1666666666666665
31.260771561044038,2.153954802259887
31.29286943191765,2.1257062146892656
31.324963395759738,2.1370056497175143
31.357053353993972,2.176553672316384
31.38913920804406,2.1737288135593222
31.421220859333673,2.1426553672316384
31.453298209286515,2.1440677966101696
31.48537115932626,2.1596045197740112
31.517439610876615,2.151129943502825
31.549503465361255,2.1822033898305087
31.58156262420388,2.1680790960451977
31.613616988828166,2.1454802259887007
31.645666460657818,2.1610169491525424
31.67771094111651,2.176553672316384
31.709750331627944,2.153954802259887
31.741784533615796,2.1440677966101696
31.773813448503773,2.175141242937853
31.805836977715547,2.1793785310734464
31.83785502267482,2.1991525423728815
31.86986748480527,2.2344632768361583
31.901874265530598,2.268361581920904
31.93387526627448,2.334745762711864
31.96587038846062,2.40819209
31.997859533512692,2.4971751412429377
32.0298426,2.6412429378531073
32.06181949790942,2.8177966101694913
32.09379012010145,2.964689265536723
32.12575437085418,3
32.15771215,2.8545197740112993
32.18966336373648,2.6454802259887007
32.22160790871344,2.360169491525424
32.25354568794584,2.2189265536723166
32.285476602857386,2.2062146892655368
32.31740055487177,2.1497175141242937
32.34931744541267,2.1666666666666665
32.38122717590378,2.135593220338983
32.41312965,2.169491525423729
32.445024762431395,2.1680790960451977
32.476912421315276,2.175141242937853
32.50879252584412,2.1483050847457625
32.54066497744163,2.1016949152542375
32.57252967753148,2.135593220338983
32.604386527537365,2.1426553672316384
32.636235428882976,2.15819209
32.66807628,2.1440677966101696
32.69990899128812,2.1228813559322033
32.73173345519504,2.151129943502825
32.76354957613644,2.1242937853107344
32.79535725553602,2.1370056497175143
32.82715639481744,2.1313559322033897
32.85894689540442,2.132768361581921
32.89072865872064,2.134180790960452
32.92250158618979,2.1596045197740112
32.954265579235546,2.1370056497175143
32.98602053928162,2.134180790960452
33.01776636775168,2.1596045197740112
33.04950296606943,2.132768361581921
33.08123023565855,2.138418079096045
33.11294807794274,2.146892655367232
33.144656394345674,2.121468926553672
33.17635508629106,2.1412429378531073
33.20804405520256,2.156779661016949
33.2397232,2.138418079096045
33.271392429618736,2.1370056497175143
33.303051637970775,2.1313559322033897
33.33470073,2.135593220338983
33.366339604081205,2.1553672316384183
33.39796816468697,2.153954802259887
33.42958631,2.1313559322033897
33.461193948118066,2.134180790960452
33.49279097379077,2.1412429378531073
33.52437729066649,2.103107344632768
33.55595280016894,2.130903955
33.587517403721776,2.115141243
33.61907100274871,2.125254237
33.650613498673415,2.136779661
33.68214479,2.122429379
33.71366478691094,2.107627119
33.74517338207113,2.1426553672316384
33.77667047982385,2.153954802259887
33.80815606416721,2.1440677966101696
33.83963073133907,2.135593220338983
33.871095352755184,2.135593220338983
33.90255080114585,2.138418079096045
33.93399795,2.1271186440677967
33.965437669772164,2.1313559322033897
33.99687083546846,2.132768361581921
34.028298319060596,2.115819209039548
34.05972099327891,2.1313559322033897
34.09113973085373,2.1242937853107344
34.12255540451537,2.134180790960452
34.15396888699415,2.1186440677966103
34.18538105,2.1370056497175143
34.21679276932444,2.1228813559322033
34.24820491463659,2.128531073446328
34.27961835968718,2.1271186440677967
34.31103397720652,2.1370056497175143
34.34245263992495,2.111581920903955
34.37387522057278,2.114406779661017
34.405302591880336,2.1370056497175143
34.43673562657794,2.156779661016949
34.46817519739592,2.1242937853107344
34.499622177064595,2.1059322033898304
34.53107743831429,2.1200564971751414
34.56254185387532,2.153954802259887
34.59401629647802,2.1271186440677967
34.62550164,2.1596045197740112
34.656998753729695,2.2005649717514126
34.68850851383932,2.2288135593220337
34.72003179191189,2.274011299435028
34.75156946067775,2.3870056497175143
34.78312239286721,2.4138418079096047
34.814691461210586,2.415254237288136
34.84627753843822,2.389830508474576
34.87788149728041,2.346045197740113
34.90950421,2.2951977401129944
34.941146550729805,2.2344632768361583
34.97280939079765,2.1426553672316384
35.00449360340134,2.1426553672316384
35.03620006127123,2.151129943502825
35.06792963713762,2.1313559322033897
35.09968320373084,2.1059322033898304
35.13146163378121,2.117231638418079
35.16326580001906,2.1440677966101696
35.195096575174695,2.1454802259887007
35.22695483197847,2.1186440677966103
35.25884144316067,2.111581920903955
35.29075728145164,2.1257062146892656
35.32270322,2.1129943502824857
35.354680130281174,2.1200564971751414
35.386688886280375,2.1200564971751414
35.418730360309645,2.132768361581921
35.45080542509928,2.1200564971751414
35.482914953379634,2.128531073446328
35.51505982,2.1257062146892656
35.54724089133372,2.1228813559322033
35.57945904646811,2.1299435028248586
35.61171516,2.1242937853107344
35.64401009,2.1129943502824857
35.67634472926454,2.121468926553672
35.70871993842884,2.1186440677966103
35.74113659292644,2.1257062146892656
35.77359556548763,2.096045197740113
35.806097728842765,2.111581920903955
35.83864395572214,2.1454802259887007
35.871235118856106,2.097457627118644
35.903872090974964,2.115819209039548
35.936555358102616,2.117231638418079
35.969283524641185,2.117231638418079
36.002054623527044,2.121468926553672
36.03486668756567,2.0903954802259888
36.06771774956255,2.1228813559322033
36.100605842323155,2.1045197740112993
36.13352899865298,2.1186440677966103
36.16648525135748,2.1087570621468927
36.19947263324217,2.117231638418079
36.232489177112505,2.114406779661017
36.26553291577398,2.151129943502825
36.298601882032074,2.103107344632768
36.33169410869226,2.115819209039548
36.36480762856003,2.1313559322033897
36.39794047444086,2.1638418079096047
36.43109067914022,2.1807909604519775
36.46425627546361,2.25
36.497435296216494,2.2937853107344632
36.530625774204374,2.353107344632768
36.56382574223271,2.5098870056497176
36.59703323310699,2.594632768361582
36.63024628,2.7203389830508473
36.663462914615316,2.809322033898305
36.696681170860316,2.8135593220338984
36.729899081173194,2.725988700564972
36.763114678359415,2.594632768361582
36.79632599522447,2.463276836158192
36.82953106457383,2.3573446327683616
36.86272791921299,2.2189265536723166
36.895914591947424,2.189265536723164
36.92908911558261,2.1610169491525424
36.96224952292403,2.138418079096045
36.995393846777176,2.1186440677966103
37.02852011994751,2.134180790960452
37.06162637524053,2.1271186440677967
37.094710645461696,2.1002824858757063
37.127770963416516,2.1045197740112993
37.160805361910455,2.1129943502824857
37.19381187,2.1242937853107344
37.22678853173762,2.1299435028248586
37.25973336868181,2.114406779661017
37.29264441738704,2.097457627118644
37.32551971,2.1228813559322033
37.35835728130257,2.0946327683615817
37.39115516212382,2.1242937853107344
37.42391138592805,2.0833333333333335
37.45662398552073,2.098870056497175
37.48929099370733,2.1045197740112993
37.52191044329335,2.121468926553672
37.55448036708426,2.111581920903955
37.58699879788555,2.1271186440677967
37.61946376850269,2.0946327683615817
37.65187331174117,2.111581920903955
37.68422546040646,2.1002824858757063
37.71651824730406,2.098870056497175
37.748749705239426,2.111581920903955
37.78091786701806,2.103107344632768
37.81302076544543,2.114406779661017
37.84505643332703,2.110169491525424
37.87702290346832,2.103107344632768
37.90891820868949,2.080508474576271
37.94074104963189,2.121468926553672
37.97249257716539,2.0861581920903953
38.0041745,2.110169491525424
38.03578854267295,2.0946327683615817
38.06733640598065,2.0762711864406778
38.09881980654673,2.1016949152542375
38.13024045703802,2.117231638418079
38.16160007012134,2.1087570621468927
38.192900358463504,2.103107344632768
38.22414303473134,2.0762711864406778
38.25532981159168,2.096045197740113
38.286462401711326,2.097457627118644
38.317542517757126,2.096045197740113
38.34857187239587,2.1059322033898304
38.37955217829442,2.097457627118644
38.41048514811956,2.080508474576271
38.44137249453814,2.1059322033898304
38.47221593021697,2.097457627118644
38.503017167822875,2.097457627118644
38.53377792002268,2.115819209039548
38.5644999,2.121468926553672
38.59518481887127,2.0946327683615817
38.625834390853704,2.114406779661017
38.65645032809733,2.1129943502824857
38.68703434326896,2.1073446327683616
38.71758814903543,2.0946327683615817
38.74811345806356,2.0889830508474576
38.778611983020156,2.1016949152542375
38.80908543657206,2.084745762711864
38.83953553138609,2.1045197740112993
38.869963980129064,2.1073446327683616
38.900372495467806,2.096045197740113
38.93076279006915,2.09180791
38.96113658,2.1073446327683616
38.99149556772689,2.1313559322033897
39.02184147611694,2.1002824858757063
39.052176014436874,2.111581920903955
39.082500895353505,2.097457627118644
39.112817831533675,2.1016949152542375
39.14312853564418,2.1002824858757063
39.17343472035187,2.0903954802259888
39.203738098323555,2.0946327683615817
39.234040382226055,2.0833333333333335
39.264343284726195,2.098870056497175
39.29464852,2.1087570621468927
39.32495779618669,2.1016949152542375
39.35527283048069,2.080508474576271
39.38559533403962,2.093220338983051
39.41592701953031,2.0762711864406778
39.44626959961956,2.1059322033898304
39.47662478697423,2.0889830508474576
39.506994294261105,2.098870056497175
39.53737983414703,2.0833333333333335
39.567783119298824,2.1045197740112993
39.59820586238331,2.103107344632768
39.62864978,2.0819209039548023
39.65911657301763,2.110169491525424
39.68960796590111,2.0889830508474576
39.72012566738458,2.080508474576271
39.75067139013484,2.0819209039548023
39.78124684681873,2.098870056497175
39.81185375010307,2.096045197740113
39.84249381265468,2.096045197740113
39.87316851054617,2.093220338983051
39.90387798,2.0819209039548023
39.93462189870806,2.098870056497175
39.96539992773627,2.098870056497175
39.99621173889492,2.1059322033898304
40.027057001308236,2.1059322033898304
40.05793538410041,2.110169491525424
40.08884655639565,2.096045197740113
40.11979018731816,2.1045197740112993
40.15076594599215,2.098870056497175
40.18177350154182,2.0889830508474576
40.21281252309138,2.0762711864406778
40.243882679765036,2.093220338983051
40.27498364,2.103107344632768
40.306115074981456,2.096045197740113
40.33727665177263,2.1059322033898304
40.36846804018472,2.080508474576271
40.39968890934194,2.1087570621468927
40.430938928368484,2.1186440677966103
40.46221776638856,2.1059322033898304
40.49352509252638,2.098870056497175
40.52486057590615,2.093220338983051
40.55622388565207,2.0861581920903953
40.587614690888344,2.0861581920903953
40.61903266073918,2.096045197740113
40.650477464328794,2.0875706214689265
40.681948770781375,2.09180791
40.71344624922114,2.080508474576271
40.74496956877229,2.097457627118644
40.776518398559034,2.103107344632768
40.808092407705566,2.1002824858757063
40.839691265336114,2.093220338983051
40.87131464057486,2.098870056497175
40.90296220254603,2.0720338983050848
40.934633620373816,2.074858757062147
40.96632856318243,2.1002824858757063
40.99804670009607,2.0875706214689265
41.029787700238955,2.080508474576271
41.061551232735276,2.0875706214689265
41.09333696670925,2.0861581920903953
41.12514457128508,2.1016949152542375
41.156973715586965,2.1016949152542375
41.188824068739116,2.114406779661017
41.220695299865746,2.0861581920903953
41.25258707809105,2.0762711864406778
41.284499072539234,2.093220338983051
41.31643095233451,2.0889830508474576
41.34838238660108,2.098870056497175
41.38035304446314,2.079096045
41.41234259504492,2.1073446327683616
41.444350707470605,2.0875706214689265
41.476377050864414,2.1186440677966103
41.50842129435053,2.1257062146892656
41.54048311,2.0946327683615817
41.57256215809658,2.0762711864406778
41.60465811660492,2.1016949152542375
41.636770651702385,2.0720338983050848
41.668899432513214,2.079096045
41.70104413,2.093220338983051
41.73320440777175,2.1016949152542375
41.76537994046786,2.0819209039548023
41.79757039537415,2.1002824858757063
41.82977544161482,2.080508474576271
41.86199474831408,2.0889830508474576
41.89422798459612,2.093220338983051
41.926474819585174,2.093220338983051
41.95873492240541,2.0861581920903953
41.991007962181065,2.077683615819209
42.02329360803634,2.0889830508474576
42.05559152909542,2.0649717514124295
42.08790139448254,2.0946327683615817
42.120222873321886,2.097457627118644
42.15255563473767,2.093220338983051
42.18489935,2.084745762711864
42.21725368179538,2.1087570621468927
42.24961831,2.0819209039548023
42.28199288864929,2.0720338983050848
42.31437709981034,2.0946327683615817
42.34677060829307,2.0875706214689265
42.379173083221666,2.096045197740113
42.41158419372036,2.0903954802259888
42.44400360891333,2.0762711864406778
42.476430997924794,2.096045197740113
42.50886602987896,2.073446327683616
42.54130837390004,2.1073446327683616
42.573757699112214,2.098870056497175
42.60621367463972,2.110169491525424
42.63867596960674,2.098870056497175
42.67114425313749,2.098870056497175
42.703618194356174,2.097457627118644
42.73609746,2.0875706214689265
42.768581726354164,2.1016949152542375
42.80107065538189,2.0946327683615817
42.833563918594365,2.084745762711864
42.866061185115804,2.0889830508474576
42.89856212407041,2.079096045
42.931066404582396,2.09180791
42.963573695775956,2.096045197740113
42.996083666775306,2.0875706214689265
43.02859598670464,2.0946327683615817
43.06111032468817,2.073446327683616
43.093626349850105,2.09180791
43.126143731314656,2.0833333333333335
43.15866213820601,2.0720338983050848
43.191181239648394,2.1016949152542375
43.22370070476599,2.097457627118644
43.256220202683025,2.0889830508474576
43.288739402523696,2.1016949152542375
43.32125797341221,2.1016949152542375
43.353775584472764,2.098870056497175
43.386291904829584,2.074858757062147
43.41880660360685,2.0819209039548023
43.451319349928795,2.0833333333333335
43.48382981,2.096045197740113
43.51633767137891,2.0875706214689265
43.548842771648246,2.0946327683615817
43.581345101780386,2.1129943502824857
43.613844654291945,2.09180791
43.64634142169956,2.0819209039548023
43.67883539651984,2.0903954802259888
43.71132657126941,2.093220338983051
43.74381494,2.0861581920903953
43.77630049062294,2.0819209039548023
43.808783220260125,2.084745762711864
43.841263119893114,2.0692090395480225
43.873740182038496,2.097457627118644
43.90621439921293,2.0706214689265536
43.93868576,2.097457627118644
43.97115426871536,2.084745762711864
44.003619906076615,2.0706214689265536
44.03608267,2.0692090395480225
44.06854254860233,2.077683615819209
44.10099953880004,2.097457627118644
44.13345363164313,2.0635593220338984
44.16590481964825,2.093220338983051
44.198353095331996,2.093220338983051
44.230798451211015,2.0762711864406778
44.26324087980191,2.0677966101694913
44.29568037362133,2.080508474576271
44.32811692518587,2.084745762711864
44.36055052701217,2.084745762711864
44.392981171616846,2.079096045
44.42540885151652,2.0889830508474576
44.45783355922782,2.0663841807909606
44.49025528726738,2.0861581920903953
44.52267403,2.073446327683616
44.555089774397715,2.0861581920903953
44.587502518521745,2.093220338983051
44.61991225304052,2.0903954802259888
44.65231897047065,2.079096045
44.68472266332878,2.1059322033898304
44.71712332,2.073446327683616
44.74952094539547,2.0833333333333335
44.78191551963728,2.0903954802259888
44.81430703937358,2.0946327683615817
44.84669549712097,2.0946327683615817
44.87908088539609,2.103107344632768
44.91146319671556,2.1002824858757063
44.94384242,2.077683615819209
44.97621855855403,2.073446327683616
45.008591594106285,2.077683615819209
45.040961522769365,2.079096045
45.07332833705992,2.0946327683615817
45.105692029494556,2.103107344632768
45.13805259258991,2.080508474576271
45.17041001886258,2.077683615819209
45.202764300829216,2.0833333333333335
45.23511543100642,2.09180791
45.26746340191084,2.077683615819209
45.29980820605907,2.0903954802259888
45.332149835967755,2.0946327683615817
45.36448828415351,2.079096045
45.39682354313296,2.0819209039548023
45.42915560542272,2.084745762711864
45.46148446353943,2.0861581920903953
45.493810109999686,2.0903954802259888
45.526132537320144,2.084745762711864
45.558451738017396,2.073446327683616
45.59076770460809,2.0819209039548023
45.623080429608834,2.097457627118644
45.65538990553627,2.0875706214689265
45.687696124906985,2.0692090395480225
45.71999908023764,2.0875706214689265
45.75229876404483,2.084745762711864
45.78459517,2.0762711864406778
45.81688828715536,2.0833333333333335
45.84917811149194,2.0946327683615817
45.88146463437155,2.074858757062147
45.913747848310834,2.0861581920903953
45.94602774582639,2.097457627118644
45.97830431943486,2.077683615819209
46.010577561652866,2.110169491525424
46.04284746499702,2.103107344632768
46.07511402198396,2.0692090395480225
46.10737722513029,2.084745762711864
46.13963706695266,2.0579096045197742
46.17189353996766,2.0706214689265536
46.20414663669194,2.074858757062147
46.236396349642106,2.074858757062147
46.268642671334796,2.080508474576271
46.30088559428662,2.0692090395480225
46.33312511101421,2.0861581920903953
46.36536121403418,2.0677966101694913
46.39759389586317,2.09180791
46.42982314901777,2.0833333333333335
46.46204896601464,2.0833333333333335
46.494271339370385,2.084745762711864
46.52649026160164,2.084745762711864
46.55870573,2.0762711864406778
46.59091772275712,2.097457627118644
46.62312625,2.080508474576271
46.65533128961408,2.0677966101694913
46.68753284397217,2.0875706214689265
46.719730902305514,2.077683615819209
46.75192546,2.080508474576271
46.78411650096439,2.084745762711864
46.816304026323174,2.0720338983050848
46.84848803,2.1045197740112993
46.88066849168257,2.0833333333333335
46.91284541671642,2.0833333333333335
46.94501879334187,2.0903954802259888
46.97718861407555,2.0762711864406778
47.00935487143407,2.0579096045197742
47.041517557934064,2.098870056497175
47.07367666609215,2.1016949152542375
47.10583218842495,2.1016949152542375
47.137984117449086,2.098870056497175
47.17013244568119,2.074858757062147
47.202277165637874,2.0819209039548023
47.23441826983577,2.0833333333333335
47.26655575079149,2.096045197740113
47.29868960102168,2.0875706214689265
47.33081981304293,2.0946327683615817
47.36294637937189,2.1129943502824857
47.395069292525164,2.09180791
47.42718855,2.0819209039548023
47.45930412937118,2.0903954802259888
47.49141603809718,2.093220338983051
47.52352426371398,2.0861581920903953
47.555628798738226,2.074858757062147
47.58772963568653,2.0875706214689265
47.61982676707552,2.0875706214689265
47.651920185421815,2.0649717514124295
47.68400988324205,2.084745762711864
47.71609585305282,2.080508474576271
47.74817808737079,2.074858757062147
47.78025657871254,2.084745762711864
47.812331319594726,2.0762711864406778
47.84440230253395,2.079096045
47.876469520046854,2.0833333333333335
47.90853296465004,2.073446327683616
47.94059262886015,2.0946327683615817
47.97264850519379,2.0903954802259888
48.00470059,2.1045197740112993
48.03674886429819,2.134180790960452
48.06879333210219,2.1426553672316384
48.10083398209621,2.1313559322033897
48.13287081,2.146892655367232
48.16490379872086,2.151129943502825
48.19693295038472,2.1920903954802258
48.22895825,2.1793785310734464
48.26097970299863,2.1920903954802258
48.29299728898192,2.156779661016949
48.32501100477162,2.1412429378531073
48.35702084288432,2.151129943502825
48.38902679583666,2.1200564971751414
48.42102885614526,2.1016949152542375
48.45302701632676,2.0833333333333335
48.48502126889775,2.0762711864406778
48.51701160637488,2.0861581920903953
48.548998021640514,2.080508474576271
48.58098054067279,2.1002824858757063
48.612959248458445,2.0833333333333335
48.644934236082285,2.080508474576271
48.67690559462911,2.0663841807909606
48.708873415183724,2.084745762711864
48.740837788830916,2.080508474576271
48.772798806655516,2.1045197740112993
48.80475656,2.077683615819209
48.83671113917609,2.080508474576271
48.86866263604167,2.0819209039548023
48.90061114142386,2.0692090395480225
48.93255674640745,2.0819209039548023
48.964499542077256,2.0663841807909606
48.996439619518064,2.073446327683616
49.02837706981469,2.080508474576271
49.06031198405193,2.0706214689265536
49.09224445331459,2.080508474576271
49.124174568687465,2.09180791
49.15610242125537,2.080508474576271
49.1880281,2.080508474576271
49.219951702315456,2.093220338983051
49.25187331297724,2.0833333333333335
49.28379302517326,2.0762711864406778
49.31571092998831,2.0579096045197742
49.34762711850721,2.0889830508474576
49.37954168181474,2.0861581920903953
49.41145471099573,2.062146892655367
49.44336629713495,2.0861581920903953
49.47527653131723,2.079096045
49.50718550462735,2.079096045
49.539093308150136,2.0480225988700567
49.571000032970375,2.0677966101694913
49.602905770172875,2.074858757062147
49.63481061084243,2.074858757062147
49.66671464606385,2.073446327683616
49.69861796692194,2.0819209039548023
49.730520664501505,2.073446327683616
49.76242282988733,2.073446327683616
49.79432455416424,2.0819209039548023
49.82622592841702,2.0706214689265536
49.858127043730484,2.062146892655367
49.89002799118943,2.0833333333333335
49.92192886187866,2.056497175141243
49.953829746882974,2.098870056497175
49.985730737287184,2.0861581920903953
50.01763192417608,2.077683615819209
50.04953339863447,2.0762711864406778
50.08143525174717,2.073446327683616
50.11333757459896,2.073446327683616
50.14524045827466,2.0692090395480225
50.17714399385906,2.0692090395480225
50.20904827243697,2.077683615819209
50.240953385093185,2.0706214689265536
50.272859422912525,2.0677966101694913
50.30476647697977,2.0706214689265536
50.33667463837974,2.077683615819209
50.36858399819723,2.0903954802259888
50.40049464751704,2.0706214689265536
50.43240667742398,2.073446327683616
50.46432017900285,2.053672316384181
50.49623524333844,2.0635593220338984
50.528151961515576,2.080508474576271
50.56007042461904,2.062146892655367
50.59199072373365,2.073446327683616
50.62391294994419,2.0677966101694913
50.65583719433549,2.060734463276836
50.687763547992326,2.080508474576271
50.71969210199951,2.0833333333333335
50.75162294744185,2.0663841807909606
50.78355617540415,2.0663841807909606
50.815491876971194,2.0677966101694913
50.84743014322781,2.077683615819209
50.87937106525878,2.0649717514124295
50.91131473414892,2.060734463276836
50.94326124098302,2.077683615819209
50.97521068,2.073446327683616
51.007163132822335,2.062146892655367
51.03911869999716,2.0720338983050848
51.071077469455155,2.073446327683616
51.10303953228114,2.0692090395480225
51.135004979559895,2.077683615819209
51.16697390237624,2.0903954802259888
51.19894639181497,2.0762711864406778
51.23092254,2.0706214689265536
51.26290243489881,2.077683615819209
51.294886170713525,2.055084745762712
51.326873837489835,2.0649717514124295
51.35886552631255,2.0522598870056497
51.39086132826646,2.0762711864406778
51.422861334436384,2.0720338983050848
51.454865635907105,2.0649717514124295
51.486874323763445,2.080508474576271
51.51888749,2.096045197740113
51.55090522297216,2.074858757062147
51.582927616494146,2.0635593220338984
51.61495476074096,2.080508474576271
51.64698674679739,2.080508474576271
51.67902366574825,2.0635593220338984
51.711065608678325,2.0819209039548023
51.743112666672445,2.073446327683616
51.77516493081539,2.073446327683616
51.80722249219199,2.073446327683616
51.83928544188701,2.079096045
51.87135387098528,2.080508474576271
51.90342787057159,2.0649717514124295
51.93550753173076,2.084745762711864
51.96759294554756,2.0677966101694913
51.999684203106824,2.074858757062147
52.03178139549333,2.0692090395480225
52.06388461379191,2.09180791
52.09599394908734,2.0762711864406778
52.12810949246444,2.0833333333333335
52.16023133500799,2.0649717514124295
52.192359567802825,2.077683615819209
52.224494281933715,2.0649717514124295
52.256635568485486,2.0635593220338984
52.28878351854293,2.0579096045197742
52.32093822319085,2.09180791
52.35309977351405,2.056497175141243
52.385268260597336,2.0635593220338984
52.417443775525506,2.0692090395480225
52.44962640938336,2.0649717514124295
52.48181625325571,2.053672316384181
52.514013398227355,2.0720338983050848
52.54621793538309,2.062146892655367
52.57842995580773,2.0677966101694913
52.61064955058606,2.0720338983050848
52.64287681,2.0720338983050848
52.67511182754304,2.0833333333333335
52.707354691891304,2.0649717514124295
52.73960549493246,2.0663841807909606
52.771864327751345,2.0720338983050848
52.80413128143273,2.0706214689265536
52.83640644706145,2.0677966101694913
52.868689915722285,2.077683615819209
52.90098177850005,2.0677966101694913
52.933282126479526,2.0649717514124295
52.965591050745545,2.0635593220338984
52.99790864238288,2.0720338983050848
53.030234992476366,2.0861581920903953
53.06257019211078,2.0692090395480225
53.09491433237094,2.0889830508474576
53.12726750434163,2.0635593220338984
53.15962979910768,2.0663841807909606
53.19200130775386,2.0706214689265536
53.224382114952775,2.0663841807909606
53.25677211057196,2.0635593220338984
53.28917096,2.0692090395480225
53.32157831234289,2.084745762711864
53.353993822270475,2.0663841807909606
53.38641714074334,2.0833333333333335
53.41884791964943,2.073446327683616
53.451285810876634,2.053672316384181
53.48373046631289,2.0677966101694913
53.51618153784611,2.0522598870056497
53.54863868,2.0677966101694913
53.581101536755085,2.0762711864406778
53.613569767906675,2.0903954802259888
53.64604302270689,2.0706214689265536
53.67852095304365,2.0762711864406778
53.71100321080486,2.0819209039548023
53.74348944787845,2.053672316384181
53.77597931615232,2.080508474576271
53.80847246751441,2.053672316384181
53.84096855385261,2.0663841807909606
53.87346722705485,2.0451977401129944
53.90596813900905,2.059322033898305
53.938470941603114,2.059322033898305
53.97097528672496,2.073446327683616
54.00348082626252,2.0819209039548023
54.035987212103684,2.0508474576271185
54.068494096136384,2.0649717514124295
54.101001130248534,2.0677966101694913
54.13350796632807,2.0635593220338984
54.16601425626287,2.084745762711864
54.19851965194086,2.0720338983050848
54.23102380524998,2.0946327683615817
54.26352636807814,2.062146892655367
54.29602699231324,2.0508474576271185
54.32852532984319,2.0649717514124295
54.361021032555925,2.079096045
54.39351375233937,2.0649717514124295
54.42600314108142,2.056497175141243
54.45848885066999,2.0649717514124295
54.49097053,2.0833333333333335
54.52344783993839,2.084745762711864
54.55592042339404,2.055084745762712
54.58838793524789,2.062146892655367
54.62085002738784,2.060734463276836
54.653306351701836,2.084745762711864
54.68575656007775,2.0677966101694913
54.71820030440353,2.0677966101694913
54.75063723656707,2.077683615819209
54.78306700845633,2.0861581920903953
54.81548927195917,2.0720338983050848
54.84790367896354,2.053672316384181
54.88030988135734,2.0579096045197742
54.91270753102851,2.0889830508474576
54.945096279864934,2.0720338983050848
54.97747577975455,2.074858757062147
55.009845682585265,2.060734463276836
55.042205640245015,2.0692090395480225
55.07455530462168,2.0875706214689265
55.10689433,2.0875706214689265
55.139222361077486,2.0677966101694913
55.17153905693247,2.1045197740112993
55.20384406705603,2.0692090395480225
55.236137043336115,2.0635593220338984
55.268417637660626,2.0649717514124295
55.300685501917506,2.073446327683616
55.332940287994624,2.080508474576271
55.365181647779934,2.0635593220338984
55.39740923316133,2.0692090395480225
55.42962269602676,2.077683615819209
55.461821688264095,2.0649717514124295
55.49400586176128,2.060734463276836
55.52617486840623,2.0635593220338984
55.55832836008686,2.0635593220338984
55.59046598869108,2.062146892655367
55.622587406106796,2.0762711864406778
55.65469226422195,2.062146892655367
55.68678021492445,2.0508474576271185
55.71885091,2.0692090395480225
55.750904001643114,2.0677966101694913
55.78293914143512,2.0677966101694913
55.814955981366154,2.0649717514124295
55.846954173324086,2.062146892655367
55.87893336919686,2.0762711864406778
55.91089322087239,2.0579096045197742
55.94283338,2.0395480225988702
55.974753499183386,2.0635593220338984
56.00665322959467,2.074858757062147
56.03853222336038,2.0579096045197742
56.07039013236843,2.0663841807909606
56.10222660850672,2.077683615819209
56.13404130366318,2.077683615819209
56.16583386972572,2.074858757062147
56.197604018156774,2.073446327683616
56.229351938633876,2.060734463276836
56.26107805096608,2.0649717514124295
56.29278277643284,2.0706214689265536
56.32446653631361,2.073446327683616
56.35612975188781,2.055084745762712
56.38777284443492,2.0649717514124295
56.419396235234366,2.062146892655367
56.451000345565625,2.062146892655367
56.482585596708105,2.060734463276836
56.514152409941275,2.0663841807909606
56.545701206544585,2.0875706214689265
56.577232407797496,2.077683615819209
56.60874643497942,2.084745762711864
56.640243709369834,2.0720338983050848
56.671724652248166,2.0663841807909606
56.70318968,2.062146892655367
56.73463922858644,2.0903954802259888
56.766073704605255,2.0861581920903953
56.79749353422979,2.0861581920903953
56.82889913873951,2.1016949152542375
56.86029093941383,2.111581920903955
56.89166935753222,2.134180790960452
56.92303481437412,2.151129943502825
56.95438773,2.1836158192090394
56.98572852934627,2.213276836158192
57.01705763,2.2344632768361583
57.048375454565836,2.3079096045197742
57.07968242421704,2.262711864
57.11097896026843,2.2895480225988702
57.14226548399947,2.2401129943502824
57.173542416689614,2.2528248587570623
57.20481017961831,2.2217514124293785
57.236069194064996,2.1553672316384183
57.26731988130912,2.1412429378531073
57.298562662630125,2.1497175141242937
57.32979795930749,2.0903954802259888
57.36102619262063,2.1073446327683616
57.39224778,2.097457627118644
57.42346315427205,2.0762711864406778
57.454672725169246,2.084745762711864
57.48587691782001,2.0946327683615817
57.517076153503794,2.0875706214689265
57.54827085350006,2.0649717514124295
57.57946143908825,2.0692090395480225
57.61064833154781,2.079096045
57.64183197363562,2.0762711864406778
57.67301302974036,2.060734463276836
57.70419229495925,2.0706214689265536
57.73537056607722,2.0833333333333335
57.76654863987924,2.056497175141243
57.797727313150254,2.0635593220338984
57.82890738267525,2.062146892655367
57.86008964523913,2.0861581920903953
57.891274897626886,2.0677966101694913
57.92246393662346,2.0635593220338984
57.95365755901382,2.0649717514124295
57.98485656,2.0762711864406778
58.01606174111567,2.0706214689265536
58.04727389439708,2.056497175141243
58.07849381821208,2.073446327683616
58.10972230934565,2.077683615819209
58.14096016458271,2.073446327683616
58.172208180708225,2.077683615819209
58.203467154507166,2.0635593220338984
58.234737882764485,2.0692090395480225
58.26602116226511,2.0579096045197742
58.29731778979402,2.073446327683616
58.328628562136174,2.060734463276836
58.35995427607652,2.0677966101694913
58.39129573,2.077683615819209
58.422653715891585,2.0706214689265536
58.45402903533622,2.0706214689265536
58.485422483518875,2.0762711864406778
58.51683485722449,2.0720338983050848
58.54826695323801,2.055084745762712
58.579719568344416,2.053672316384181
58.611193499328664,2.060734463276836
58.64268954297568,2.0720338983050848
58.674208496070435,2.056497175141243
58.705751155397884,2.0677966101694913
58.73731832,2.0762711864406778
58.76891078,2.0494350282485874
58.800529338625964,2.0649717514124295
58.83217479073374,2.074858757062147
58.86384793299899,2.0875706214689265
58.89554956220666,2.0579096045197742
58.92728047514171,2.073446327683616
58.959041468589085,2.059322033898305
58.99083333933376,2.0677966101694913
59.022656884160675,2.0677966101694913
59.05451286718647,2.0677966101694913
59.08640111710466,2.059322033898305
59.118320411834084,2.074858757062147
59.15026947345709,2.0692090395480225
59.182247024056046,2.0635593220338984
59.214251785713316,2.055084745762712
59.24628248051129,2.0692090395480225
59.278337830532294,2.0579096045197742
59.310416557858716,2.080508474576271
59.34251738457291,2.055084745762712
59.374639032757266,2.0692090395480225
59.40678022449411,2.0677966101694913
59.43893968186583,2.0663841807909606
59.47111612695479,2.0649717514124295
59.50330828184337,2.0649717514124295
59.53551487,2.062146892655367
59.56773460934877,2.080508474576271
59.59996622613033,2.060734463276836
59.632208441040966,2.0635593220338984
59.66445997616302,2.056497175141243
59.696719553578866,2.059322033898305
59.72898589537087,2.0522598870056497
59.76125772362141,2.0466101694915255
59.79353376041283,2.079096045
59.82581273,2.060734463276836
59.85809334794778,2.0875706214689265
59.89037434285607,2.062146892655367
59.92265443463469,2.0579096045197742
59.95493234536602,2.1016949152542375
59.98720679713242,2.0579096045197742
60.01947651201629,2.074858757062147
60.05174021209995,2.0677966101694913
60.08399661946578,2.0649717514124295
60.11624445619615,2.059322033898305
60.148482444373435,2.0720338983050848
60.18070930607998,2.0635593220338984
60.21292376339815,2.073446327683616
60.24512453841032,2.0706214689265536
60.27731035319887,2.0720338983050848
60.309479929846134,2.077683615819209
60.34163199043449,2.059322033898305
60.37376525704631,2.073446327683616
60.405878451763954,2.074858757062147
60.43797029666978,2.0720338983050848
60.47003988321306,2.073446327683616
60.50208808991499,2.073446327683616
60.53411633503004,2.0522598870056497
60.566126036926484,2.0635593220338984
60.59811861397261,2.0861581920903953
60.63009548,2.0649717514124295
60.66205806698707,2.0649717514124295
60.694007779691965,2.0663841807909606
60.72594604101968,2.0480225988700567
60.75787426933851,2.0762711864406778
60.78979388301675,2.056497175141243
60.82170630042266,2.060734463276836
60.85361293992454,2.0706214689265536
60.88551521989067,2.0635593220338984
60.91741455868936,2.0635593220338984
60.94931237468886,2.056497175141243
60.98121008625746,2.0649717514124295
61.01310911176346,2.0692090395480225
61.045010869575165,2.084745762711864
61.07691677806081,2.056497175141243
61.10882825558872,2.077683615819209
61.14074672052716,2.0706214689265536
61.17267359124444,2.0635593220338984
61.20461028610881,2.053672316384181
61.23655822348858,2.073446327683616
61.268518821752025,2.0508474576271185
61.300493499267446,2.0663841807909606
61.332483674403115,2.0649717514124295
61.36449076552731,2.0649717514124295
61.39651619100833,2.0635593220338984
61.42856136921447,2.053672316384181
61.46062771851399,2.073446327683616
61.49271665727519,2.0706214689265536
61.52482960386635,2.055084745762712
61.55696797665578,2.053672316384181
61.58913319401172,2.0579096045197742
61.62132667430249,2.074858757062147
61.65354983589636,2.0635593220338984
61.68580409716163,2.0692090395480225
61.71809087646657,2.060734463276836
61.75041159217947,2.0692090395480225
61.78276766266862,2.079096045
61.81516050630231,2.0692090395480225
61.84759130794976,2.0720338983050848
61.88005978231353,2.059322033898305
61.91256507336575,2.060734463276836
61.94510632381636,2.0875706214689265
61.97768267637526,2.0692090395480225
62.01029327375238,2.077683615819209
62.042937258657645,2.056497175141243
62.075613773800974,2.062146892655367
62.10832196189231,2.079096045
62.141060965641536,2.073446327683616
62.17382993,2.074858757062147
62.20662799095341,2.0649717514124295
62.23945429793591,2.056497175141243
62.27230799141599,2.0522598870056497
62.305188214103595,2.074858757062147
62.338094108708646,2.0677966101694913
62.37102481794106,2.073446327683616
62.40397948451076,2.056497175141243
62.43695725112766,2.084745762711864
62.46995726050169,2.074858757062147
62.50297865534279,2.0508474576271185
62.53602057836084,2.0720338983050848
62.56908217226579,2.0635593220338984
62.60216257976755,2.077683615819209
62.63526094357607,2.0819209039548023
62.66837640640124,2.056497175141243
62.70150811095298,2.056497175141243
62.73465519994123,2.0762711864406778
62.76781681607593,2.079096045
62.80099210206695,2.0720338983050848
62.834180200624246,2.0677966101694913
62.867380254457736,2.0663841807909606
62.90059140627736,2.056497175141243
62.93381279879299,2.0635593220338984
62.967043574714594,2.0579096045197742
63.000282876752074,2.0480225988700567
63.03352984761536,2.0635593220338984
63.06678363001437,2.0635593220338984
63.10004336665902,2.080508474576271
63.133308200259236,2.074858757062147
63.16657727352496,2.056497175141243
63.19984972916608,2.055084745762712
63.23312470989253,2.0692090395480225
63.26640135841424,2.0649717514124295
63.29967881744114,2.0649717514124295
63.33295622968313,2.060734463276836
63.36623273785013,2.053672316384181
63.399507484652084,2.0833333333333335
63.43277961279892,2.0720338983050848
63.46604826500052,2.0677966101694913
63.499312583966834,2.0663841807909606
63.53257171240778,2.0706214689265536
63.56582479303329,2.0692090395480225
63.599070968553264,2.111581920903955
63.63230938167763,2.1045197740112993
63.66553917511632,2.1313559322033897
63.69875949157927,2.1666666666666665
63.73196947377636,2.1483050847457625
63.76516826441753,2.1440677966101696
63.79835500621272,2.165254237288136
63.831528841871844,2.15819209
63.86468891410481,2.1454802259887007
63.89783436562155,2.1440677966101696
63.930964339131975,2.1370056497175143
63.96407797734604,2.093220338983051
63.99717442297362,2.132768361581921
64.03025281872468,2.110169491525424
64.06331231,2.093220338983051
64.09635203143685,2.0861581920903953
64.12937113,2.093220338983051
64.16236875716191,2.0677966101694913
64.19534404,2.0889830508474576
64.22829613757928,2.0720338983050848
64.26122418007236,2.053672316384181
64.29412731436827,2.0706214689265536
64.32700468317695,2.060734463276836
64.35985542920832,2.0720338983050848
64.39267869517228,2.0635593220338984
64.42547362377877,2.0649717514124295
64.45823936,2.0649717514124295
64.49097503975901,2.0706214689265536
64.52367981255259,2.0522598870056497
64.55632780550074,2.062146892655367
64.58896937347767,2.074858757062147
64.62157956804933,2.0819209039548023
64.65415862464317,2.060734463276836
64.68670677868671,2.0635593220338984
64.71922426560741,2.0677966101694913
64.75171132,2.062146892655367
64.78416818,2.0663841807909606
64.81659507790745,2.0720338983050848
64.84899225,2.0677966101694913
64.88135993333057,2.0706214689265536
64.91369836149151,2.055084745762712
64.94600777052204,2.0635593220338984
64.97828839584962,2.073446327683616
65.01054047290175,2.055084745762712
65.04276424,2.079096045
65.07495992388958,2.073446327683616
65.10712776868024,2.0706214689265536
65.13926800690541,2.077683615819209
65.17138087399255,2.0494350282485874
65.20346660536914,2.077683615819209
65.23552543646268,2.0494350282485874
65.26755760270065,2.059322033898305
65.29956333951054,2.0635593220338984
65.33154288231982,2.062146892655367
65.36349646655599,2.055084745762712
65.39542432764655,2.0663841807909606
65.42732670101896,2.056497175141243
65.45920382,2.0579096045197742
65.49105592631928,2.056497175141243
65.52288325,2.0677966101694913
65.55468602587689,2.0635593220338984
65.58646449207087,2.0579096045197742
65.61821888311164,2.056497175141243
65.64994943442666,2.053672316384181
65.68165638144343,2.060734463276836
65.71333995958942,2.077683615819209
65.74500040429213,2.0522598870056497
65.77663795097905,2.0522598870056497
65.80825283507765,2.0338983050847457
65.83984529201543,2.0522598870056497
65.87141555721986,2.0508474576271185
65.90296386611845,2.062146892655367
65.93449045413867,2.055084745762712
65.96599556,2.0522598870056497
65.99747940925393,2.0635593220338984
66.02894224720396,2.0480225988700567